Altitude (m),Air density (kg/m3)
-1500,1.41137
-1499,1.41124
-1498,1.41111
-1497,1.41098
-1496,1.41085
-1495,1.41072
-1494,1.41059
-1493,1.41045
-1492,1.41032
-1491,1.41019
-1490,1.41006
-1489,1.40993
-1488,1.4098
-1487,1.40967
-1486,1.40954
-1485,1.40941
-1484,1.40928
-1483,1.40915
-1482,1.40901
-1481,1.40888
-1480,1.40875
-1479,1.40862
-1478,1.40849
-1477,1.40836
-1476,1.40823
-1475,1.4081
-1474,1.40797
-1473,1.40784
-1472,1.40771
-1471,1.40758
-1470,1.40744
-1469,1.40731
-1468,1.40718
-1467,1.40705
-1466,1.40692
-1465,1.40679
-1464,1.40666
-1463,1.40653
-1462,1.4064
-1461,1.40627
-1460,1.40614
-1459,1.40601
-1458,1.40588
-1457,1.40574
-1456,1.40561
-1455,1.40548
-1454,1.40535
-1453,1.40522
-1452,1.40509
-1451,1.40496
-1450,1.40483
-1449,1.4047
-1448,1.40457
-1447,1.40444
-1446,1.40431
-1445,1.40418
-1444,1.40405
-1443,1.40392
-1442,1.40379
-1441,1.40366
-1440,1.40353
-1439,1.40339
-1438,1.40326
-1437,1.40313
-1436,1.403
-1435,1.40287
-1434,1.40274
-1433,1.40261
-1432,1.40248
-1431,1.40235
-1430,1.40222
-1429,1.40209
-1428,1.40196
-1427,1.40183
-1426,1.4017
-1425,1.40157
-1424,1.40144
-1423,1.40131
-1422,1.40118
-1421,1.40105
-1420,1.40092
-1419,1.40079
-1418,1.40066
-1417,1.40053
-1416,1.4004
-1415,1.40027
-1414,1.40014
-1413,1.4
-1412,1.39987
-1411,1.39974
-1410,1.39961
-1409,1.39948
-1408,1.39935
-1407,1.39922
-1406,1.39909
-1405,1.39896
-1404,1.39883
-1403,1.3987
-1402,1.39857
-1401,1.39844
-1400,1.39831
-1399,1.39818
-1398,1.39805
-1397,1.39792
-1396,1.39779
-1395,1.39766
-1394,1.39753
-1393,1.3974
-1392,1.39727
-1391,1.39714
-1390,1.39701
-1389,1.39688
-1388,1.39675
-1387,1.39662
-1386,1.39649
-1385,1.39636
-1384,1.39623
-1383,1.3961
-1382,1.39597
-1381,1.39584
-1380,1.39571
-1379,1.39558
-1378,1.39545
-1377,1.39532
-1376,1.39519
-1375,1.39506
-1374,1.39493
-1373,1.3948
-1372,1.39467
-1371,1.39454
-1370,1.39441
-1369,1.39428
-1368,1.39415
-1367,1.39402
-1366,1.39389
-1365,1.39376
-1364,1.39363
-1363,1.3935
-1362,1.39337
-1361,1.39324
-1360,1.39311
-1359,1.39298
-1358,1.39285
-1357,1.39273
-1356,1.3926
-1355,1.39247
-1354,1.39234
-1353,1.39221
-1352,1.39208
-1351,1.39195
-1350,1.39182
-1349,1.39169
-1348,1.39156
-1347,1.39143
-1346,1.3913
-1345,1.39117
-1344,1.39104
-1343,1.39091
-1342,1.39078
-1341,1.39065
-1340,1.39052
-1339,1.39039
-1338,1.39026
-1337,1.39013
-1336,1.39
-1335,1.38987
-1334,1.38974
-1333,1.38961
-1332,1.38948
-1331,1.38936
-1330,1.38923
-1329,1.3891
-1328,1.38897
-1327,1.38884
-1326,1.38871
-1325,1.38858
-1324,1.38845
-1323,1.38832
-1322,1.38819
-1321,1.38806
-1320,1.38793
-1319,1.3878
-1318,1.38767
-1317,1.38754
-1316,1.38741
-1315,1.38728
-1314,1.38716
-1313,1.38703
-1312,1.3869
-1311,1.38677
-1310,1.38664
-1309,1.38651
-1308,1.38638
-1307,1.38625
-1306,1.38612
-1305,1.38599
-1304,1.38586
-1303,1.38573
-1302,1.3856
-1301,1.38547
-1300,1.38535
-1299,1.38522
-1298,1.38509
-1297,1.38496
-1296,1.38483
-1295,1.3847
-1294,1.38457
-1293,1.38444
-1292,1.38431
-1291,1.38418
-1290,1.38405
-1289,1.38392
-1288,1.3838
-1287,1.38367
-1286,1.38354
-1285,1.38341
-1284,1.38328
-1283,1.38315
-1282,1.38302
-1281,1.38289
-1280,1.38276
-1279,1.38263
-1278,1.38251
-1277,1.38238
-1276,1.38225
-1275,1.38212
-1274,1.38199
-1273,1.38186
-1272,1.38173
-1271,1.3816
-1270,1.38147
-1269,1.38134
-1268,1.38122
-1267,1.38109
-1266,1.38096
-1265,1.38083
-1264,1.3807
-1263,1.38057
-1262,1.38044
-1261,1.38031
-1260,1.38018
-1259,1.38006
-1258,1.37993
-1257,1.3798
-1256,1.37967
-1255,1.37954
-1254,1.37941
-1253,1.37928
-1252,1.37915
-1251,1.37903
-1250,1.3789
-1249,1.37877
-1248,1.37864
-1247,1.37851
-1246,1.37838
-1245,1.37825
-1244,1.37812
-1243,1.378
-1242,1.37787
-1241,1.37774
-1240,1.37761
-1239,1.37748
-1238,1.37735
-1237,1.37722
-1236,1.37709
-1235,1.37697
-1234,1.37684
-1233,1.37671
-1232,1.37658
-1231,1.37645
-1230,1.37632
-1229,1.37619
-1228,1.37607
-1227,1.37594
-1226,1.37581
-1225,1.37568
-1224,1.37555
-1223,1.37542
-1222,1.3753
-1221,1.37517
-1220,1.37504
-1219,1.37491
-1218,1.37478
-1217,1.37465
-1216,1.37452
-1215,1.3744
-1214,1.37427
-1213,1.37414
-1212,1.37401
-1211,1.37388
-1210,1.37375
-1209,1.37363
-1208,1.3735
-1207,1.37337
-1206,1.37324
-1205,1.37311
-1204,1.37298
-1203,1.37286
-1202,1.37273
-1201,1.3726
-1200,1.37247
-1199,1.37234
-1198,1.37221
-1197,1.37209
-1196,1.37196
-1195,1.37183
-1194,1.3717
-1193,1.37157
-1192,1.37144
-1191,1.37132
-1190,1.37119
-1189,1.37106
-1188,1.37093
-1187,1.3708
-1186,1.37068
-1185,1.37055
-1184,1.37042
-1183,1.37029
-1182,1.37016
-1181,1.37003
-1180,1.36991
-1179,1.36978
-1178,1.36965
-1177,1.36952
-1176,1.36939
-1175,1.36927
-1174,1.36914
-1173,1.36901
-1172,1.36888
-1171,1.36875
-1170,1.36863
-1169,1.3685
-1168,1.36837
-1167,1.36824
-1166,1.36811
-1165,1.36799
-1164,1.36786
-1163,1.36773
-1162,1.3676
-1161,1.36747
-1160,1.36735
-1159,1.36722
-1158,1.36709
-1157,1.36696
-1156,1.36683
-1155,1.36671
-1154,1.36658
-1153,1.36645
-1152,1.36632
-1151,1.3662
-1150,1.36607
-1149,1.36594
-1148,1.36581
-1147,1.36568
-1146,1.36556
-1145,1.36543
-1144,1.3653
-1143,1.36517
-1142,1.36505
-1141,1.36492
-1140,1.36479
-1139,1.36466
-1138,1.36453
-1137,1.36441
-1136,1.36428
-1135,1.36415
-1134,1.36402
-1133,1.3639
-1132,1.36377
-1131,1.36364
-1130,1.36351
-1129,1.36339
-1128,1.36326
-1127,1.36313
-1126,1.363
-1125,1.36287
-1124,1.36275
-1123,1.36262
-1122,1.36249
-1121,1.36236
-1120,1.36224
-1119,1.36211
-1118,1.36198
-1117,1.36185
-1116,1.36173
-1115,1.3616
-1114,1.36147
-1113,1.36134
-1112,1.36122
-1111,1.36109
-1110,1.36096
-1109,1.36083
-1108,1.36071
-1107,1.36058
-1106,1.36045
-1105,1.36032
-1104,1.3602
-1103,1.36007
-1102,1.35994
-1101,1.35981
-1100,1.35969
-1099,1.35956
-1098,1.35943
-1097,1.35931
-1096,1.35918
-1095,1.35905
-1094,1.35892
-1093,1.3588
-1092,1.35867
-1091,1.35854
-1090,1.35841
-1089,1.35829
-1088,1.35816
-1087,1.35803
-1086,1.35791
-1085,1.35778
-1084,1.35765
-1083,1.35752
-1082,1.3574
-1081,1.35727
-1080,1.35714
-1079,1.35701
-1078,1.35689
-1077,1.35676
-1076,1.35663
-1075,1.35651
-1074,1.35638
-1073,1.35625
-1072,1.35612
-1071,1.356
-1070,1.35587
-1069,1.35574
-1068,1.35562
-1067,1.35549
-1066,1.35536
-1065,1.35524
-1064,1.35511
-1063,1.35498
-1062,1.35485
-1061,1.35473
-1060,1.3546
-1059,1.35447
-1058,1.35435
-1057,1.35422
-1056,1.35409
-1055,1.35397
-1054,1.35384
-1053,1.35371
-1052,1.35358
-1051,1.35346
-1050,1.35333
-1049,1.3532
-1048,1.35308
-1047,1.35295
-1046,1.35282
-1045,1.3527
-1044,1.35257
-1043,1.35244
-1042,1.35232
-1041,1.35219
-1040,1.35206
-1039,1.35193
-1038,1.35181
-1037,1.35168
-1036,1.35155
-1035,1.35143
-1034,1.3513
-1033,1.35117
-1032,1.35105
-1031,1.35092
-1030,1.35079
-1029,1.35067
-1028,1.35054
-1027,1.35041
-1026,1.35029
-1025,1.35016
-1024,1.35003
-1023,1.34991
-1022,1.34978
-1021,1.34965
-1020,1.34953
-1019,1.3494
-1018,1.34927
-1017,1.34915
-1016,1.34902
-1015,1.34889
-1014,1.34877
-1013,1.34864
-1012,1.34851
-1011,1.34839
-1010,1.34826
-1009,1.34813
-1008,1.34801
-1007,1.34788
-1006,1.34775
-1005,1.34763
-1004,1.3475
-1003,1.34738
-1002,1.34725
-1001,1.34712
-1000,1.347
-999,1.34687
-998,1.34674
-997,1.34662
-996,1.34649
-995,1.34636
-994,1.34624
-993,1.34611
-992,1.34598
-991,1.34586
-990,1.34573
-989,1.34561
-988,1.34548
-987,1.34535
-986,1.34523
-985,1.3451
-984,1.34497
-983,1.34485
-982,1.34472
-981,1.34459
-980,1.34447
-979,1.34434
-978,1.34422
-977,1.34409
-976,1.34396
-975,1.34384
-974,1.34371
-973,1.34358
-972,1.34346
-971,1.34333
-970,1.34321
-969,1.34308
-968,1.34295
-967,1.34283
-966,1.3427
-965,1.34258
-964,1.34245
-963,1.34232
-962,1.3422
-961,1.34207
-960,1.34194
-959,1.34182
-958,1.34169
-957,1.34157
-956,1.34144
-955,1.34131
-954,1.34119
-953,1.34106
-952,1.34094
-951,1.34081
-950,1.34068
-949,1.34056
-948,1.34043
-947,1.34031
-946,1.34018
-945,1.34005
-944,1.33993
-943,1.3398
-942,1.33968
-941,1.33955
-940,1.33942
-939,1.3393
-938,1.33917
-937,1.33905
-936,1.33892
-935,1.33879
-934,1.33867
-933,1.33854
-932,1.33842
-931,1.33829
-930,1.33817
-929,1.33804
-928,1.33791
-927,1.33779
-926,1.33766
-925,1.33754
-924,1.33741
-923,1.33729
-922,1.33716
-921,1.33703
-920,1.33691
-919,1.33678
-918,1.33666
-917,1.33653
-916,1.3364
-915,1.33628
-914,1.33615
-913,1.33603
-912,1.3359
-911,1.33578
-910,1.33565
-909,1.33553
-908,1.3354
-907,1.33527
-906,1.33515
-905,1.33502
-904,1.3349
-903,1.33477
-902,1.33465
-901,1.33452
-900,1.33439
-899,1.33427
-898,1.33414
-897,1.33402
-896,1.33389
-895,1.33377
-894,1.33364
-893,1.33352
-892,1.33339
-891,1.33327
-890,1.33314
-889,1.33301
-888,1.33289
-887,1.33276
-886,1.33264
-885,1.33251
-884,1.33239
-883,1.33226
-882,1.33214
-881,1.33201
-880,1.33189
-879,1.33176
-878,1.33163
-877,1.33151
-876,1.33138
-875,1.33126
-874,1.33113
-873,1.33101
-872,1.33088
-871,1.33076
-870,1.33063
-869,1.33051
-868,1.33038
-867,1.33026
-866,1.33013
-865,1.33001
-864,1.32988
-863,1.32976
-862,1.32963
-861,1.32951
-860,1.32938
-859,1.32925
-858,1.32913
-857,1.329
-856,1.32888
-855,1.32875
-854,1.32863
-853,1.3285
-852,1.32838
-851,1.32825
-850,1.32813
-849,1.328
-848,1.32788
-847,1.32775
-846,1.32763
-845,1.3275
-844,1.32738
-843,1.32725
-842,1.32713
-841,1.327
-840,1.32688
-839,1.32675
-838,1.32663
-837,1.3265
-836,1.32638
-835,1.32625
-834,1.32613
-833,1.326
-832,1.32588
-831,1.32575
-830,1.32563
-829,1.3255
-828,1.32538
-827,1.32525
-826,1.32513
-825,1.325
-824,1.32488
-823,1.32475
-822,1.32463
-821,1.3245
-820,1.32438
-819,1.32425
-818,1.32413
-817,1.324
-816,1.32388
-815,1.32376
-814,1.32363
-813,1.32351
-812,1.32338
-811,1.32326
-810,1.32313
-809,1.32301
-808,1.32288
-807,1.32276
-806,1.32263
-805,1.32251
-804,1.32238
-803,1.32226
-802,1.32213
-801,1.32201
-800,1.32188
-799,1.32176
-798,1.32164
-797,1.32151
-796,1.32139
-795,1.32126
-794,1.32114
-793,1.32101
-792,1.32089
-791,1.32076
-790,1.32064
-789,1.32051
-788,1.32039
-787,1.32026
-786,1.32014
-785,1.32002
-784,1.31989
-783,1.31977
-782,1.31964
-781,1.31952
-780,1.31939
-779,1.31927
-778,1.31914
-777,1.31902
-776,1.3189
-775,1.31877
-774,1.31865
-773,1.31852
-772,1.3184
-771,1.31827
-770,1.31815
-769,1.31802
-768,1.3179
-767,1.31778
-766,1.31765
-765,1.31753
-764,1.3174
-763,1.31728
-762,1.31715
-761,1.31703
-760,1.31691
-759,1.31678
-758,1.31666
-757,1.31653
-756,1.31641
-755,1.31628
-754,1.31616
-753,1.31604
-752,1.31591
-751,1.31579
-750,1.31566
-749,1.31554
-748,1.31541
-747,1.31529
-746,1.31517
-745,1.31504
-744,1.31492
-743,1.31479
-742,1.31467
-741,1.31455
-740,1.31442
-739,1.3143
-738,1.31417
-737,1.31405
-736,1.31392
-735,1.3138
-734,1.31368
-733,1.31355
-732,1.31343
-731,1.3133
-730,1.31318
-729,1.31306
-728,1.31293
-727,1.31281
-726,1.31268
-725,1.31256
-724,1.31244
-723,1.31231
-722,1.31219
-721,1.31206
-720,1.31194
-719,1.31182
-718,1.31169
-717,1.31157
-716,1.31145
-715,1.31132
-714,1.3112
-713,1.31107
-712,1.31095
-711,1.31083
-710,1.3107
-709,1.31058
-708,1.31045
-707,1.31033
-706,1.31021
-705,1.31008
-704,1.30996
-703,1.30984
-702,1.30971
-701,1.30959
-700,1.30946
-699,1.30934
-698,1.30922
-697,1.30909
-696,1.30897
-695,1.30885
-694,1.30872
-693,1.3086
-692,1.30847
-691,1.30835
-690,1.30823
-689,1.3081
-688,1.30798
-687,1.30786
-686,1.30773
-685,1.30761
-684,1.30748
-683,1.30736
-682,1.30724
-681,1.30711
-680,1.30699
-679,1.30687
-678,1.30674
-677,1.30662
-676,1.3065
-675,1.30637
-674,1.30625
-673,1.30613
-672,1.306
-671,1.30588
-670,1.30576
-669,1.30563
-668,1.30551
-667,1.30538
-666,1.30526
-665,1.30514
-664,1.30501
-663,1.30489
-662,1.30477
-661,1.30464
-660,1.30452
-659,1.3044
-658,1.30427
-657,1.30415
-656,1.30403
-655,1.3039
-654,1.30378
-653,1.30366
-652,1.30353
-651,1.30341
-650,1.30329
-649,1.30316
-648,1.30304
-647,1.30292
-646,1.30279
-645,1.30267
-644,1.30255
-643,1.30242
-642,1.3023
-641,1.30218
-640,1.30205
-639,1.30193
-638,1.30181
-637,1.30168
-636,1.30156
-635,1.30144
-634,1.30132
-633,1.30119
-632,1.30107
-631,1.30095
-630,1.30082
-629,1.3007
-628,1.30058
-627,1.30045
-626,1.30033
-625,1.30021
-624,1.30008
-623,1.29996
-622,1.29984
-621,1.29971
-620,1.29959
-619,1.29947
-618,1.29935
-617,1.29922
-616,1.2991
-615,1.29898
-614,1.29885
-613,1.29873
-612,1.29861
-611,1.29848
-610,1.29836
-609,1.29824
-608,1.29812
-607,1.29799
-606,1.29787
-605,1.29775
-604,1.29762
-603,1.2975
-602,1.29738
-601,1.29726
-600,1.29713
-599,1.29701
-598,1.29689
-597,1.29676
-596,1.29664
-595,1.29652
-594,1.2964
-593,1.29627
-592,1.29615
-591,1.29603
-590,1.2959
-589,1.29578
-588,1.29566
-587,1.29554
-586,1.29541
-585,1.29529
-584,1.29517
-583,1.29505
-582,1.29492
-581,1.2948
-580,1.29468
-579,1.29455
-578,1.29443
-577,1.29431
-576,1.29419
-575,1.29406
-574,1.29394
-573,1.29382
-572,1.2937
-571,1.29357
-570,1.29345
-569,1.29333
-568,1.29321
-567,1.29308
-566,1.29296
-565,1.29284
-564,1.29272
-563,1.29259
-562,1.29247
-561,1.29235
-560,1.29223
-559,1.2921
-558,1.29198
-557,1.29186
-556,1.29174
-555,1.29161
-554,1.29149
-553,1.29137
-552,1.29125
-551,1.29112
-550,1.291
-549,1.29088
-548,1.29076
-547,1.29063
-546,1.29051
-545,1.29039
-544,1.29027
-543,1.29014
-542,1.29002
-541,1.2899
-540,1.28978
-539,1.28965
-538,1.28953
-537,1.28941
-536,1.28929
-535,1.28917
-534,1.28904
-533,1.28892
-532,1.2888
-531,1.28868
-530,1.28855
-529,1.28843
-528,1.28831
-527,1.28819
-526,1.28806
-525,1.28794
-524,1.28782
-523,1.2877
-522,1.28758
-521,1.28745
-520,1.28733
-519,1.28721
-518,1.28709
-517,1.28697
-516,1.28684
-515,1.28672
-514,1.2866
-513,1.28648
-512,1.28635
-511,1.28623
-510,1.28611
-509,1.28599
-508,1.28587
-507,1.28574
-506,1.28562
-505,1.2855
-504,1.28538
-503,1.28526
-502,1.28513
-501,1.28501
-500,1.28489
-499,1.28477
-498,1.28465
-497,1.28452
-496,1.2844
-495,1.28428
-494,1.28416
-493,1.28404
-492,1.28392
-491,1.28379
-490,1.28367
-489,1.28355
-488,1.28343
-487,1.28331
-486,1.28318
-485,1.28306
-484,1.28294
-483,1.28282
-482,1.2827
-481,1.28257
-480,1.28245
-479,1.28233
-478,1.28221
-477,1.28209
-476,1.28197
-475,1.28184
-474,1.28172
-473,1.2816
-472,1.28148
-471,1.28136
-470,1.28124
-469,1.28111
-468,1.28099
-467,1.28087
-466,1.28075
-465,1.28063
-464,1.28051
-463,1.28038
-462,1.28026
-461,1.28014
-460,1.28002
-459,1.2799
-458,1.27978
-457,1.27965
-456,1.27953
-455,1.27941
-454,1.27929
-453,1.27917
-452,1.27905
-451,1.27892
-450,1.2788
-449,1.27868
-448,1.27856
-447,1.27844
-446,1.27832
-445,1.2782
-444,1.27807
-443,1.27795
-442,1.27783
-441,1.27771
-440,1.27759
-439,1.27747
-438,1.27734
-437,1.27722
-436,1.2771
-435,1.27698
-434,1.27686
-433,1.27674
-432,1.27662
-431,1.2765
-430,1.27637
-429,1.27625
-428,1.27613
-427,1.27601
-426,1.27589
-425,1.27577
-424,1.27565
-423,1.27552
-422,1.2754
-421,1.27528
-420,1.27516
-419,1.27504
-418,1.27492
-417,1.2748
-416,1.27468
-415,1.27455
-414,1.27443
-413,1.27431
-412,1.27419
-411,1.27407
-410,1.27395
-409,1.27383
-408,1.27371
-407,1.27358
-406,1.27346
-405,1.27334
-404,1.27322
-403,1.2731
-402,1.27298
-401,1.27286
-400,1.27274
-399,1.27262
-398,1.27249
-397,1.27237
-396,1.27225
-395,1.27213
-394,1.27201
-393,1.27189
-392,1.27177
-391,1.27165
-390,1.27153
-389,1.27141
-388,1.27128
-387,1.27116
-386,1.27104
-385,1.27092
-384,1.2708
-383,1.27068
-382,1.27056
-381,1.27044
-380,1.27032
-379,1.2702
-378,1.27008
-377,1.26995
-376,1.26983
-375,1.26971
-374,1.26959
-373,1.26947
-372,1.26935
-371,1.26923
-370,1.26911
-369,1.26899
-368,1.26887
-367,1.26875
-366,1.26862
-365,1.2685
-364,1.26838
-363,1.26826
-362,1.26814
-361,1.26802
-360,1.2679
-359,1.26778
-358,1.26766
-357,1.26754
-356,1.26742
-355,1.2673
-354,1.26718
-353,1.26706
-352,1.26693
-351,1.26681
-350,1.26669
-349,1.26657
-348,1.26645
-347,1.26633
-346,1.26621
-345,1.26609
-344,1.26597
-343,1.26585
-342,1.26573
-341,1.26561
-340,1.26549
-339,1.26537
-338,1.26525
-337,1.26513
-336,1.26501
-335,1.26488
-334,1.26476
-333,1.26464
-332,1.26452
-331,1.2644
-330,1.26428
-329,1.26416
-328,1.26404
-327,1.26392
-326,1.2638
-325,1.26368
-324,1.26356
-323,1.26344
-322,1.26332
-321,1.2632
-320,1.26308
-319,1.26296
-318,1.26284
-317,1.26272
-316,1.2626
-315,1.26248
-314,1.26236
-313,1.26224
-312,1.26211
-311,1.26199
-310,1.26187
-309,1.26175
-308,1.26163
-307,1.26151
-306,1.26139
-305,1.26127
-304,1.26115
-303,1.26103
-302,1.26091
-301,1.26079
-300,1.26067
-299,1.26055
-298,1.26043
-297,1.26031
-296,1.26019
-295,1.26007
-294,1.25995
-293,1.25983
-292,1.25971
-291,1.25959
-290,1.25947
-289,1.25935
-288,1.25923
-287,1.25911
-286,1.25899
-285,1.25887
-284,1.25875
-283,1.25863
-282,1.25851
-281,1.25839
-280,1.25827
-279,1.25815
-278,1.25803
-277,1.25791
-276,1.25779
-275,1.25767
-274,1.25755
-273,1.25743
-272,1.25731
-271,1.25719
-270,1.25707
-269,1.25695
-268,1.25683
-267,1.25671
-266,1.25659
-265,1.25647
-264,1.25635
-263,1.25623
-262,1.25611
-261,1.25599
-260,1.25587
-259,1.25575
-258,1.25563
-257,1.25551
-256,1.25539
-255,1.25527
-254,1.25515
-253,1.25503
-252,1.25491
-251,1.25479
-250,1.25467
-249,1.25455
-248,1.25443
-247,1.25431
-246,1.25419
-245,1.25407
-244,1.25395
-243,1.25383
-242,1.25371
-241,1.25359
-240,1.25347
-239,1.25335
-238,1.25324
-237,1.25312
-236,1.253
-235,1.25288
-234,1.25276
-233,1.25264
-232,1.25252
-231,1.2524
-230,1.25228
-229,1.25216
-228,1.25204
-227,1.25192
-226,1.2518
-225,1.25168
-224,1.25156
-223,1.25144
-222,1.25132
-221,1.2512
-220,1.25108
-219,1.25096
-218,1.25084
-217,1.25072
-216,1.2506
-215,1.25049
-214,1.25037
-213,1.25025
-212,1.25013
-211,1.25001
-210,1.24989
-209,1.24977
-208,1.24965
-207,1.24953
-206,1.24941
-205,1.24929
-204,1.24917
-203,1.24905
-202,1.24893
-201,1.24881
-200,1.24869
-199,1.24857
-198,1.24846
-197,1.24834
-196,1.24822
-195,1.2481
-194,1.24798
-193,1.24786
-192,1.24774
-191,1.24762
-190,1.2475
-189,1.24738
-188,1.24726
-187,1.24714
-186,1.24702
-185,1.2469
-184,1.24679
-183,1.24667
-182,1.24655
-181,1.24643
-180,1.24631
-179,1.24619
-178,1.24607
-177,1.24595
-176,1.24583
-175,1.24571
-174,1.24559
-173,1.24548
-172,1.24536
-171,1.24524
-170,1.24512
-169,1.245
-168,1.24488
-167,1.24476
-166,1.24464
-165,1.24452
-164,1.2444
-163,1.24428
-162,1.24417
-161,1.24405
-160,1.24393
-159,1.24381
-158,1.24369
-157,1.24357
-156,1.24345
-155,1.24333
-154,1.24321
-153,1.24309
-152,1.24298
-151,1.24286
-150,1.24274
-149,1.24262
-148,1.2425
-147,1.24238
-146,1.24226
-145,1.24214
-144,1.24202
-143,1.24191
-142,1.24179
-141,1.24167
-140,1.24155
-139,1.24143
-138,1.24131
-137,1.24119
-136,1.24107
-135,1.24096
-134,1.24084
-133,1.24072
-132,1.2406
-131,1.24048
-130,1.24036
-129,1.24024
-128,1.24012
-127,1.24001
-126,1.23989
-125,1.23977
-124,1.23965
-123,1.23953
-122,1.23941
-121,1.23929
-120,1.23917
-119,1.23906
-118,1.23894
-117,1.23882
-116,1.2387
-115,1.23858
-114,1.23846
-113,1.23834
-112,1.23823
-111,1.23811
-110,1.23799
-109,1.23787
-108,1.23775
-107,1.23763
-106,1.23751
-105,1.2374
-104,1.23728
-103,1.23716
-102,1.23704
-101,1.23692
-100,1.2368
-99,1.23669
-98,1.23657
-97,1.23645
-96,1.23633
-95,1.23621
-94,1.23609
-93,1.23597
-92,1.23586
-91,1.23574
-90,1.23562
-89,1.2355
-88,1.23538
-87,1.23526
-86,1.23515
-85,1.23503
-84,1.23491
-83,1.23479
-82,1.23467
-81,1.23455
-80,1.23444
-79,1.23432
-78,1.2342
-77,1.23408
-76,1.23396
-75,1.23384
-74,1.23373
-73,1.23361
-72,1.23349
-71,1.23337
-70,1.23325
-69,1.23314
-68,1.23302
-67,1.2329
-66,1.23278
-65,1.23266
-64,1.23254
-63,1.23243
-62,1.23231
-61,1.23219
-60,1.23207
-59,1.23195
-58,1.23184
-57,1.23172
-56,1.2316
-55,1.23148
-54,1.23136
-53,1.23125
-52,1.23113
-51,1.23101
-50,1.23089
-49,1.23077
-48,1.23065
-47,1.23054
-46,1.23042
-45,1.2303
-44,1.23018
-43,1.23006
-42,1.22995
-41,1.22983
-40,1.22971
-39,1.22959
-38,1.22948
-37,1.22936
-36,1.22924
-35,1.22912
-34,1.229
-33,1.22889
-32,1.22877
-31,1.22865
-30,1.22853
-29,1.22841
-28,1.2283
-27,1.22818
-26,1.22806
-25,1.22794
-24,1.22782
-23,1.22771
-22,1.22759
-21,1.22747
-20,1.22735
-19,1.22724
-18,1.22712
-17,1.227
-16,1.22688
-15,1.22677
-14,1.22665
-13,1.22653
-12,1.22641
-11,1.22629
-10,1.22618
-9,1.22606
-8,1.22594
-7,1.22582
-6,1.22571
-5,1.22559
-4,1.22547
-3,1.22535
-2,1.22524
-1,1.22512
0,1.225
1,1.22488
2,1.22476
3,1.22465
4,1.22453
5,1.22441
6,1.22429
7,1.22418
8,1.22406
9,1.22394
10,1.22382
11,1.22371
12,1.22359
13,1.22347
14,1.22335
15,1.22324
16,1.22312
17,1.223
18,1.22288
19,1.22277
20,1.22265
21,1.22253
22,1.22241
